VSB	ID	VGB
1.10579e-04	2.31516e-04	2.00014e+00
1.01081e-02	2.19536e-04	2.00013e+00
2.01110e-02	2.07965e-04	2.00013e+00
3.01073e-02	1.96726e-04	2.00013e+00
4.01093e-02	1.85812e-04	2.00013e+00
5.01078e-02	1.75215e-04	2.00013e+00
6.01076e-02	1.64931e-04	2.00012e+00
7.01095e-02	1.55002e-04	2.00012e+00
8.01101e-02	1.45385e-04	2.00013e+00
9.01101e-02	1.36092e-04	2.00013e+00
1.00109e-01	1.27119e-04	2.00012e+00
1.10111e-01	1.18472e-04	2.00013e+00
1.20113e-01	1.10143e-04	2.00012e+00
1.30110e-01	1.02148e-04	2.00013e+00
1.40112e-01	9.44877e-05	2.00013e+00
1.50112e-01	8.71451e-05	2.00013e+00
1.60109e-01	8.01069e-05	2.00012e+00
1.70109e-01	7.34165e-05	2.00012e+00
1.80109e-01	6.70267e-05	2.00012e+00
1.90107e-01	6.09741e-05	2.00012e+00
2.00105e-01	5.52273e-05	2.00012e+00
2.10135e-01	4.98105e-05	2.00012e+00
2.20120e-01	4.47293e-05	2.00012e+00
2.30113e-01	3.99451e-05	2.00012e+00
2.40135e-01	3.54694e-05	2.00012e+00
2.50124e-01	3.13207e-05	2.00013e+00
2.60150e-01	2.74656e-05	2.00012e+00
2.70137e-01	2.39205e-05	2.00012e+00
2.80123e-01	2.06830e-05	2.00012e+00
2.90147e-01	1.77230e-05	2.00012e+00
3.00135e-01	1.50630e-05	2.00012e+00
3.10119e-01	1.26853e-05	2.00012e+00
3.20150e-01	1.05610e-05	2.00012e+00
3.30135e-01	8.70236e-06	2.00012e+00
3.40123e-01	7.08503e-06	2.00012e+00
3.50151e-01	5.69081e-06	2.00012e+00
3.60141e-01	4.51642e-06	2.00012e+00
3.70126e-01	3.53382e-06	2.00012e+00
3.80148e-01	2.72533e-06	2.00012e+00
3.90140e-01	2.07347e-06	2.00012e+00
4.00128e-01	1.55708e-06	2.00012e+00
4.10149e-01	1.15342e-06	2.00012e+00
4.20137e-01	8.44245e-07	2.00012e+00
4.30125e-01	6.11232e-07	2.00012e+00
4.40148e-01	4.38017e-07	2.00012e+00
4.50135e-01	3.11421e-07	2.00012e+00
4.60124e-01	2.19735e-07	2.00012e+00
4.70150e-01	1.53945e-07	2.00012e+00
4.80139e-01	1.07528e-07	2.00011e+00
4.90128e-01	7.49746e-08	2.00012e+00
5.00144e-01	5.19257e-08	2.00012e+00
5.10129e-01	3.58771e-08	2.00012e+00
5.20153e-01	2.47492e-08	2.00012e+00
5.30139e-01	1.70613e-08	2.00012e+00
5.40127e-01	1.17228e-08	2.00012e+00
5.50152e-01	8.01894e-09	2.00012e+00
5.60142e-01	5.50297e-09	2.00012e+00
5.70131e-01	3.77390e-09	2.00012e+00
5.80155e-01	2.58355e-09	2.00013e+00
5.90142e-01	1.77143e-09	2.00012e+00
6.00130e-01	1.21165e-09	2.00012e+00
6.10154e-01	8.30402e-10	2.00012e+00
6.20129e-01	5.68353e-10	2.00012e+00
6.30118e-01	3.88321e-10	2.00013e+00
6.40148e-01	2.65101e-10	2.00013e+00
6.50133e-01	1.81672e-10	2.00013e+00
6.60120e-01	1.24246e-10	2.00013e+00
6.70150e-01	8.49657e-11	2.00013e+00
6.80142e-01	5.84215e-11	2.00012e+00
6.90128e-01	4.01053e-11	2.00012e+00
7.00148e-01	2.77168e-11	2.00012e+00
7.10142e-01	1.91494e-11	2.00012e+00
7.20126e-01	1.33570e-11	2.00014e+00
7.30149e-01	9.41813e-12	2.00014e+00
7.40135e-01	6.70445e-12	2.00014e+00
7.50121e-01	4.84574e-12	2.00013e+00
7.60158e-01	3.55124e-12	2.00013e+00
7.70148e-01	2.70498e-12	2.00013e+00
7.80166e-01	2.11394e-12	2.00013e+00
7.90155e-01	1.69921e-12	2.00013e+00
8.00144e-01	1.42133e-12	2.00012e+00
8.10169e-01	1.21439e-12	2.00013e+00
8.20147e-01	1.10614e-12	2.00014e+00
8.30148e-01	1.00172e-12	2.00014e+00
8.40165e-01	9.04798e-13	2.00013e+00
8.50151e-01	8.65221e-13	2.00013e+00
8.60135e-01	8.62598e-13	2.00013e+00
8.70165e-01	8.31008e-13	2.00013e+00
8.80157e-01	7.87735e-13	2.00013e+00
8.90141e-01	7.92623e-13	2.00013e+00
9.00165e-01	7.65085e-13	2.00013e+00
9.10154e-01	7.20978e-13	2.00013e+00
9.20142e-01	7.54476e-13	2.00013e+00
9.30163e-01	7.24912e-13	2.00013e+00
9.40147e-01	7.03335e-13	2.00013e+00
9.50141e-01	7.17282e-13	2.00014e+00
9.60165e-01	7.24554e-13	2.00014e+00
9.70151e-01	7.16567e-13	2.00014e+00
9.80143e-01	7.10249e-13	2.00012e+00
9.90168e-01	7.04408e-13	2.00012e+00
1.00015e+00	6.76274e-13	2.00012e+00
1.01014e+00	6.76274e-13	2.00012e+00
1.02015e+00	6.67453e-13	2.00012e+00
1.03015e+00	6.50764e-13	2.00013e+00
1.04017e+00	6.61016e-13	2.00013e+00
1.05015e+00	6.53267e-13	2.00013e+00
1.06016e+00	6.29663e-13	2.00012e+00
1.07017e+00	6.05822e-13	2.00013e+00
1.08016e+00	6.33359e-13	2.00013e+00
1.09014e+00	6.04630e-13	2.00012e+00
1.10017e+00	6.14405e-13	2.00013e+00
1.11015e+00	5.98192e-13	2.00013e+00
1.12014e+00	6.05106e-13	2.00013e+00
1.13016e+00	5.90324e-13	2.00013e+00
1.14015e+00	5.84722e-13	2.00013e+00
1.15014e+00	5.66959e-13	2.00013e+00
1.16017e+00	5.76735e-13	2.00013e+00
1.17015e+00	5.68986e-13	2.00012e+00
1.18014e+00	5.75066e-13	2.00012e+00
1.19016e+00	5.72205e-13	2.00012e+00
1.20015e+00	5.66006e-13	2.00012e+00
1.21014e+00	5.90086e-13	2.00012e+00
1.22015e+00	5.81026e-13	2.00012e+00
1.23014e+00	5.56707e-13	2.00012e+00
1.24013e+00	5.61714e-13	2.00013e+00
1.25016e+00	5.36084e-13	2.00013e+00
1.26014e+00	5.31435e-13	2.00013e+00
1.27014e+00	5.30481e-13	2.00013e+00
1.28016e+00	5.15103e-13	2.00012e+00
1.29014e+00	5.16295e-13	2.00013e+00
1.30017e+00	4.89473e-13	2.00013e+00
1.31016e+00	4.83036e-13	2.00013e+00
1.32014e+00	4.55260e-13	2.00012e+00
1.33017e+00	4.81486e-13	2.00012e+00
1.34015e+00	4.35352e-13	2.00013e+00
1.35014e+00	4.43339e-13	2.00012e+00
1.36016e+00	4.42862e-13	2.00012e+00
1.37015e+00	4.43816e-13	2.00013e+00
1.38014e+00	4.27723e-13	2.00013e+00
1.39016e+00	4.03762e-13	2.00013e+00
1.40014e+00	3.87788e-13	2.00013e+00
1.41013e+00	4.09484e-13	2.00013e+00
1.42015e+00	3.91960e-13	2.00013e+00
1.43014e+00	3.87192e-13	2.00013e+00
1.44014e+00	3.87549e-13	2.00013e+00
1.45017e+00	3.84212e-13	2.00012e+00
1.46014e+00	3.62039e-13	2.00013e+00
1.47013e+00	3.42250e-13	2.00012e+00
1.48015e+00	3.45826e-13	2.00012e+00
1.49014e+00	3.61204e-13	2.00013e+00
1.50013e+00	3.16620e-13	2.00014e+00
1.51015e+00	3.01480e-13	2.00013e+00
1.52013e+00	2.96831e-13	2.00013e+00
1.53015e+00	2.93374e-13	2.00013e+00
1.54013e+00	2.75016e-13	2.00013e+00
1.55013e+00	2.84553e-13	2.00013e+00
1.56016e+00	2.68936e-13	2.00013e+00
1.57015e+00	2.67267e-13	2.00012e+00
1.58013e+00	2.60234e-13	2.00013e+00
1.59015e+00	2.26617e-13	2.00013e+00
1.60014e+00	2.33173e-13	2.00013e+00
1.61013e+00	2.23041e-13	2.00013e+00
1.62015e+00	2.24233e-13	2.00013e+00
1.63013e+00	1.91689e-13	2.00013e+00
1.64012e+00	2.33054e-13	2.00013e+00
1.65014e+00	2.18630e-13	2.00012e+00
1.66014e+00	1.79052e-13	2.00012e+00
1.67013e+00	1.83463e-13	2.00012e+00
1.68015e+00	1.91212e-13	2.00012e+00
1.69013e+00	1.51038e-13	2.00012e+00
1.70011e+00	1.69992e-13	2.00012e+00
1.71014e+00	1.51157e-13	2.00013e+00
1.72012e+00	1.44124e-13	2.00013e+00
1.73011e+00	1.42455e-13	2.00013e+00
1.74013e+00	1.38998e-13	2.00012e+00
1.75012e+00	1.47820e-13	2.00013e+00
1.76010e+00	1.44482e-13	2.00013e+00
1.77013e+00	1.17779e-13	2.00013e+00
1.78011e+00	1.22786e-13	2.00013e+00
1.79014e+00	1.10984e-13	2.00013e+00
1.80012e+00	8.30889e-14	2.00013e+00
1.81012e+00	1.02758e-13	2.00013e+00
1.82013e+00	8.85725e-14	2.00013e+00
1.83012e+00	6.85453e-14	2.00012e+00
1.84010e+00	7.31945e-14	2.00012e+00
1.85012e+00	8.33273e-14	2.00012e+00
1.86010e+00	6.43730e-14	2.00012e+00
1.87008e+00	6.35386e-14	2.00013e+00
1.88010e+00	3.69549e-14	2.00013e+00
1.89009e+00	5.81741e-14	2.00013e+00
1.90008e+00	3.71933e-14	2.00012e+00
1.91010e+00	6.43730e-15	2.00012e+00
1.92007e+00	-4.76837e-16	2.00013e+00
1.93006e+00	-6.91414e-15	2.00013e+00
1.94010e+00	-2.47955e-14	2.00012e+00
1.95008e+00	-4.52995e-14	2.00012e+00
1.96007e+00	-7.77245e-14	2.00013e+00
1.97008e+00	-1.17183e-13	2.00013e+00
1.98007e+00	-2.01821e-13	2.00013e+00
1.99006e+00	-2.65598e-13	2.00013e+00
2.00008e+00	-3.30210e-13	2.00013e+00
2.01113e+00	-4.56572e-13	2.00013e+00
2.02138e+00	-6.10471e-13	2.00013e+00
2.03135e+00	-7.24912e-13	2.00013e+00
2.04131e+00	-8.28028e-13	2.00013e+00
2.05126e+00	-9.36031e-13	2.00013e+00
2.06109e+00	-1.02842e-12	2.00013e+00
2.07136e+00	-1.10376e-12	2.00013e+00
2.08128e+00	-1.18232e-12	2.00012e+00
2.09125e+00	-1.22154e-12	2.00013e+00
2.10118e+00	-1.27196e-12	2.00012e+00
2.11116e+00	-1.28734e-12	2.00012e+00
2.12145e+00	-1.32406e-12	2.00013e+00
2.13141e+00	-1.34683e-12	2.00013e+00
2.14130e+00	-1.34146e-12	2.00013e+00
2.15123e+00	-1.34718e-12	2.00013e+00
2.16118e+00	-1.35612e-12	2.00013e+00
2.17143e+00	-1.39117e-12	2.00013e+00
2.18141e+00	-1.42884e-12	2.00013e+00
2.19133e+00	-1.44732e-12	2.00013e+00
2.20131e+00	-1.48094e-12	2.00013e+00
2.21121e+00	-1.48153e-12	2.00014e+00
2.22153e+00	-1.48416e-12	2.00013e+00
2.23149e+00	-1.50418e-12	2.00013e+00
2.24139e+00	-1.50847e-12	2.00012e+00
2.25129e+00	-1.51038e-12	2.00013e+00
2.26118e+00	-1.54042e-12	2.00013e+00
2.27149e+00	-1.56093e-12	2.00012e+00
2.28135e+00	-1.59597e-12	2.00014e+00
2.29137e+00	-1.61541e-12	2.00013e+00
2.30134e+00	-1.62268e-12	2.00012e+00
2.31122e+00	-1.60599e-12	2.00012e+00
2.32147e+00	-1.57976e-12	2.00012e+00
2.33138e+00	-1.62172e-12	2.00012e+00
2.34136e+00	-1.60837e-12	2.00012e+00
2.35133e+00	-1.61457e-12	2.00012e+00
2.36126e+00	-1.58405e-12	2.00012e+00
2.37151e+00	-1.69098e-12	2.00013e+00
2.38148e+00	-1.72734e-12	2.00013e+00
2.39139e+00	-1.75619e-12	2.00013e+00
2.40138e+00	-1.75750e-12	2.00013e+00
2.41127e+00	-1.76966e-12	2.00012e+00
2.42153e+00	-1.86288e-12	2.00013e+00
2.43143e+00	-1.73998e-12	2.00013e+00
2.44142e+00	-1.61779e-12	2.00013e+00
2.45129e+00	-1.64497e-12	2.00012e+00
2.46116e+00	-1.64413e-12	2.00012e+00
2.47112e+00	-1.63925e-12	2.00012e+00
2.48147e+00	-1.62995e-12	2.00013e+00
2.49133e+00	-1.66070e-12	2.00013e+00
2.50125e+00	-1.68383e-12	2.00013e+00
2.51118e+00	-1.69468e-12	2.00014e+00
2.52117e+00	-1.71721e-12	2.00013e+00
2.53139e+00	-1.70648e-12	2.00013e+00
2.54127e+00	-1.75226e-12	2.00013e+00
2.55123e+00	-1.76442e-12	2.00013e+00
2.56122e+00	-1.76883e-12	2.00013e+00
2.57111e+00	-1.77622e-12	2.00013e+00
2.58139e+00	-1.80840e-12	2.00013e+00
2.59136e+00	-1.81413e-12	2.00014e+00
2.60128e+00	-1.79803e-12	2.00013e+00
2.61126e+00	-1.84321e-12	2.00013e+00
2.62124e+00	-1.83511e-12	2.00013e+00
2.63148e+00	-1.87862e-12	2.00012e+00
2.64139e+00	-1.85227e-12	2.00013e+00
2.65130e+00	-1.87624e-12	2.00012e+00
2.66123e+00	-1.91486e-12	2.00012e+00
2.67123e+00	-1.92750e-12	2.00012e+00
2.68137e+00	-1.94752e-12	2.00012e+00
2.69127e+00	-1.95658e-12	2.00012e+00
2.70131e+00	-1.96481e-12	2.00012e+00
2.71127e+00	-1.97303e-12	2.00013e+00
2.72124e+00	-1.99938e-12	2.00012e+00
2.73144e+00	-2.01666e-12	2.00013e+00
2.74144e+00	-2.02692e-12	2.00012e+00
2.75140e+00	-2.03502e-12	2.00013e+00
2.76121e+00	-2.05839e-12	2.00013e+00
2.77117e+00	-2.07055e-12	2.00013e+00
2.78145e+00	-2.08175e-12	2.00013e+00
2.79137e+00	-2.10333e-12	2.00013e+00
2.80133e+00	-2.11513e-12	2.00012e+00
2.81129e+00	-2.11799e-12	2.00012e+00
2.82120e+00	-2.16520e-12	2.00013e+00
2.83155e+00	-2.16854e-12	2.00012e+00
2.84151e+00	-2.17986e-12	2.00012e+00
2.85138e+00	-2.17879e-12	2.00012e+00
2.86128e+00	-2.15769e-12	2.00012e+00
2.87122e+00	-2.13778e-12	2.00011e+00
2.88146e+00	-2.18809e-12	2.00011e+00
2.89148e+00	-2.18153e-12	2.00011e+00
2.90145e+00	-2.20895e-12	2.00012e+00
2.91137e+00	-2.20132e-12	2.00011e+00
2.92132e+00	-2.21527e-12	2.00012e+00
2.93153e+00	-2.25759e-12	2.00012e+00
2.94149e+00	-2.23064e-12	2.00012e+00
2.95137e+00	-2.27141e-12	2.00012e+00
2.96133e+00	-2.25723e-12	2.00012e+00
2.97125e+00	-2.28107e-12	2.00013e+00
2.98153e+00	-2.32136e-12	2.00013e+00
2.99149e+00	-2.31802e-12	2.00012e+00
3.00143e+00	-2.31636e-12	2.00013e+00