VGB	ID	VDS
1.54734e-05	5.61714e-13	1.05741e-02
1.00120e-02	5.58257e-13	1.05694e-02
2.00120e-02	5.55277e-13	1.05692e-02
3.00192e-02	5.51224e-13	1.05721e-02
4.00193e-02	5.72085e-13	1.05740e-02
5.00179e-02	5.79953e-13	1.05703e-02
6.00227e-02	5.78523e-13	1.05762e-02
7.00215e-02	5.99742e-13	1.05716e-02
8.00225e-02	6.04510e-13	1.05701e-02
9.00261e-02	6.09159e-13	1.05679e-02
1.00025e-01	6.38127e-13	1.05661e-02
1.10021e-01	6.68049e-13	1.05666e-02
1.20021e-01	6.91414e-13	1.05661e-02
1.30018e-01	7.22051e-13	1.05648e-02
1.40014e-01	7.38502e-13	1.05635e-02
1.50019e-01	7.77245e-13	1.05620e-02
1.60016e-01	7.97510e-13	1.05648e-02
1.70020e-01	8.47101e-13	1.05647e-02
1.80020e-01	8.72135e-13	1.05620e-02
1.90015e-01	9.47475e-13	1.05629e-02
2.00018e-01	1.03605e-12	1.05624e-02
2.10024e-01	1.10114e-12	1.05598e-02
2.20014e-01	1.17683e-12	1.05603e-02
2.29999e-01	1.27184e-12	1.05576e-02
2.40023e-01	1.38819e-12	1.05546e-02
2.50009e-01	1.51753e-12	1.05525e-02
2.60034e-01	1.65856e-12	1.05541e-02
2.70024e-01	1.83058e-12	1.05519e-02
2.80011e-01	2.02167e-12	1.05542e-02
2.90035e-01	2.26879e-12	1.05503e-02
3.00022e-01	2.50602e-12	1.05554e-02
3.10012e-01	2.82824e-12	1.05513e-02
3.20033e-01	3.19445e-12	1.05522e-02
3.30022e-01	3.59607e-12	1.05555e-02
3.40014e-01	4.05049e-12	1.05535e-02
3.50034e-01	4.60351e-12	1.05526e-02
3.60024e-01	5.23245e-12	1.05495e-02
3.70015e-01	5.94532e-12	1.05481e-02
3.80039e-01	6.78468e-12	1.05464e-02
3.90031e-01	7.79057e-12	1.05511e-02
4.00026e-01	8.89468e-12	1.05554e-02
4.10051e-01	1.01979e-11	1.05534e-02
4.20037e-01	1.17183e-11	1.05540e-02
4.30023e-01	1.34372e-11	1.05532e-02
4.40046e-01	1.54669e-11	1.05534e-02
4.50035e-01	1.77743e-11	1.05543e-02
4.60024e-01	2.04419e-11	1.05518e-02
4.70054e-01	2.35350e-11	1.05482e-02
4.80035e-01	2.70839e-11	1.05383e-02
4.90027e-01	3.12028e-11	1.05391e-02
5.00051e-01	3.59712e-11	1.05407e-02
5.10032e-01	4.15125e-11	1.05433e-02
5.20051e-01	4.78816e-11	1.05414e-02
5.30043e-01	5.52858e-11	1.05459e-02
5.40029e-01	6.38093e-11	1.05468e-02
5.50052e-01	7.38370e-11	1.05449e-02
5.60042e-01	8.53393e-11	1.05401e-02
5.70032e-01	9.86446e-11	1.05408e-02
5.80052e-01	1.14157e-10	1.05414e-02
5.90046e-01	1.31987e-10	1.05385e-02
6.00028e-01	1.52896e-10	1.05390e-02
6.10056e-01	1.77322e-10	1.05415e-02
6.20044e-01	2.04853e-10	1.05360e-02
6.30030e-01	2.37522e-10	1.05351e-02
6.40044e-01	2.75533e-10	1.05345e-02
6.50031e-01	3.18967e-10	1.05335e-02
6.60022e-01	3.70222e-10	1.05293e-02
6.70042e-01	4.29095e-10	1.05289e-02
6.80030e-01	4.98162e-10	1.05244e-02
6.90022e-01	5.78483e-10	1.05308e-02
7.00046e-01	6.72523e-10	1.05291e-02
7.10039e-01	7.81028e-10	1.05320e-02
7.20020e-01	9.08062e-10	1.05283e-02
7.30044e-01	1.05658e-09	1.05297e-02
7.40034e-01	1.22862e-09	1.05305e-02
7.50021e-01	1.42748e-09	1.05294e-02
7.60048e-01	1.66187e-09	1.05320e-02
7.70037e-01	1.93266e-09	1.05316e-02
7.80058e-01	2.24884e-09	1.05326e-02
7.90048e-01	2.61934e-09	1.05305e-02
8.00036e-01	3.04616e-09	1.05302e-02
8.10058e-01	3.54861e-09	1.05305e-02
8.20043e-01	4.13224e-09	1.05290e-02
8.30035e-01	4.81093e-09	1.05294e-02
8.40057e-01	5.60380e-09	1.05315e-02
8.50044e-01	6.53052e-09	1.05292e-02
8.60036e-01	7.60206e-09	1.05298e-02
8.70058e-01	8.86146e-09	1.05264e-02
8.80042e-01	1.03214e-08	1.05262e-02
8.90033e-01	1.20181e-08	1.05275e-02
9.00053e-01	1.39945e-08	1.05267e-02
9.10045e-01	1.63085e-08	1.05264e-02
9.20034e-01	1.89643e-08	1.05262e-02
9.30057e-01	2.20884e-08	1.05257e-02
9.40045e-01	2.56794e-08	1.05231e-02
9.50033e-01	2.98650e-08	1.05244e-02
9.60058e-01	3.47280e-08	1.05239e-02
9.70049e-01	4.03349e-08	1.05256e-02
9.80038e-01	4.68322e-08	1.05249e-02
9.90062e-01	5.42817e-08	1.05228e-02
1.00005e+00	6.28863e-08	1.05243e-02
1.01003e+00	7.27952e-08	1.05243e-02
1.02006e+00	8.41546e-08	1.05225e-02
1.03004e+00	9.70488e-08	1.05209e-02
1.04007e+00	1.11995e-07	1.05264e-02
1.05005e+00	1.28794e-07	1.05284e-02
1.06004e+00	1.47873e-07	1.05272e-02
1.07007e+00	1.69390e-07	1.05284e-02
1.08006e+00	1.93659e-07	1.05265e-02
1.09005e+00	2.20527e-07	1.05269e-02
1.10007e+00	2.50785e-07	1.05266e-02
1.11006e+00	2.84350e-07	1.05260e-02
1.12005e+00	3.21181e-07	1.05262e-02
1.13007e+00	3.62037e-07	1.05265e-02
1.14006e+00	4.06471e-07	1.05244e-02
1.15005e+00	4.54930e-07	1.05249e-02
1.16007e+00	5.07644e-07	1.05238e-02
1.17006e+00	5.64475e-07	1.05219e-02
1.18004e+00	6.25145e-07	1.05220e-02
1.19006e+00	6.90521e-07	1.05227e-02
1.20006e+00	7.60027e-07	1.05219e-02
1.21004e+00	8.33031e-07	1.05230e-02
1.22007e+00	9.10464e-07	1.05213e-02
1.23005e+00	9.91603e-07	1.05212e-02
1.24004e+00	1.07676e-06	1.05223e-02
1.25006e+00	1.16545e-06	1.05206e-02
1.26005e+00	1.25766e-06	1.05207e-02
1.27004e+00	1.35312e-06	1.05212e-02
1.28007e+00	1.45271e-06	1.05209e-02
1.29005e+00	1.55419e-06	1.05217e-02
1.30008e+00	1.65940e-06	1.05203e-02
1.31006e+00	1.76617e-06	1.05210e-02
1.32005e+00	1.87597e-06	1.05213e-02
1.33007e+00	1.98864e-06	1.05186e-02
1.34006e+00	2.10222e-06	1.05194e-02
1.35005e+00	2.21832e-06	1.05185e-02
1.36008e+00	2.33728e-06	1.05172e-02
1.37007e+00	2.45694e-06	1.05185e-02
1.38005e+00	2.57834e-06	1.05177e-02
1.39007e+00	2.70251e-06	1.05183e-02
1.40006e+00	2.82627e-06	1.05172e-02
1.41005e+00	2.95115e-06	1.05159e-02
1.42007e+00	3.07862e-06	1.05171e-02
1.43006e+00	3.20653e-06	1.05164e-02
1.44003e+00	3.33431e-06	1.05177e-02
1.45006e+00	3.46461e-06	1.05190e-02
1.46004e+00	3.59549e-06	1.05187e-02
1.47003e+00	3.72617e-06	1.05190e-02
1.48005e+00	3.85835e-06	1.05191e-02
1.49004e+00	3.99024e-06	1.05196e-02
1.50003e+00	4.12326e-06	1.05177e-02
1.51005e+00	4.25611e-06	1.05190e-02
1.52004e+00	4.39070e-06	1.05183e-02
1.53006e+00	4.52504e-06	1.05212e-02
1.54005e+00	4.65855e-06	1.05204e-02
1.55004e+00	4.79155e-06	1.05177e-02
1.56006e+00	4.92697e-06	1.05172e-02
1.57005e+00	5.06225e-06	1.05157e-02
1.58004e+00	5.19628e-06	1.05174e-02
1.59006e+00	5.33124e-06	1.05148e-02
1.60004e+00	5.46534e-06	1.05154e-02
1.61003e+00	5.59952e-06	1.05154e-02
1.62005e+00	5.73419e-06	1.05135e-02
1.63004e+00	5.86930e-06	1.05132e-02
1.64003e+00	6.00229e-06	1.05111e-02
1.65005e+00	6.13770e-06	1.05101e-02
1.66004e+00	6.27319e-06	1.05108e-02
1.67003e+00	6.40762e-06	1.05114e-02
1.68005e+00	6.54205e-06	1.05116e-02
1.69004e+00	6.67554e-06	1.05130e-02
1.70003e+00	6.80998e-06	1.05107e-02
1.71005e+00	6.94313e-06	1.05094e-02
1.72003e+00	7.07698e-06	1.05101e-02
1.73002e+00	7.21126e-06	1.05117e-02
1.74004e+00	7.34533e-06	1.05122e-02
1.75003e+00	7.47839e-06	1.05128e-02
1.76001e+00	7.61115e-06	1.05116e-02
1.77004e+00	7.74441e-06	1.05117e-02
1.78002e+00	7.87637e-06	1.05118e-02
1.79005e+00	8.00712e-06	1.05119e-02
1.80003e+00	8.13916e-06	1.05106e-02
1.81002e+00	8.26938e-06	1.05095e-02
1.82004e+00	8.40029e-06	1.05107e-02
1.83003e+00	8.53192e-06	1.05114e-02
1.84001e+00	8.66317e-06	1.05103e-02
1.85003e+00	8.79243e-06	1.05097e-02
1.86001e+00	8.92213e-06	1.05093e-02
1.87001e+00	9.05294e-06	1.05102e-02
1.88003e+00	9.18159e-06	1.05102e-02
1.89001e+00	9.31129e-06	1.05110e-02
1.90000e+00	9.43937e-06	1.05106e-02
1.91002e+00	9.56871e-06	1.05102e-02
1.92000e+00	9.69704e-06	1.05108e-02
1.92999e+00	9.82248e-06	1.05114e-02
1.94001e+00	9.95203e-06	1.05094e-02
1.95000e+00	1.00783e-05	1.05181e-02
1.95999e+00	1.02084e-05	1.05171e-02
1.97001e+00	1.03369e-05	1.05179e-02
1.97999e+00	1.04621e-05	1.05177e-02
1.98998e+00	1.05876e-05	1.05159e-02
2.00000e+00	1.07099e-05	1.05146e-02
2.01017e+00	1.08344e-05	1.05150e-02
2.02045e+00	1.09609e-05	1.05145e-02
2.03037e+00	1.10842e-05	1.05150e-02
2.04028e+00	1.12100e-05	1.05150e-02
2.05026e+00	1.13332e-05	1.05128e-02
2.06019e+00	1.14533e-05	1.05132e-02
2.07046e+00	1.15820e-05	1.05122e-02
2.08039e+00	1.17019e-05	1.05134e-02
2.09032e+00	1.18248e-05	1.05134e-02
2.10022e+00	1.19462e-05	1.05123e-02
2.11018e+00	1.20648e-05	1.05127e-02
2.12043e+00	1.21875e-05	1.05128e-02
2.13039e+00	1.23118e-05	1.05129e-02
2.14031e+00	1.24298e-05	1.05109e-02
2.15026e+00	1.25484e-05	1.05125e-02
2.16019e+00	1.26683e-05	1.05120e-02
2.17043e+00	1.27898e-05	1.05138e-02
2.18039e+00	1.29134e-05	1.05141e-02
2.19032e+00	1.30297e-05	1.05141e-02
2.20027e+00	1.31455e-05	1.05132e-02
2.21020e+00	1.32635e-05	1.05155e-02
2.22048e+00	1.33815e-05	1.05122e-02
2.23041e+00	1.34989e-05	1.05116e-02
2.24034e+00	1.36119e-05	1.05111e-02
2.25030e+00	1.37274e-05	1.05104e-02
2.26022e+00	1.38470e-05	1.05105e-02
2.27048e+00	1.39642e-05	1.05106e-02
2.28043e+00	1.40793e-05	1.05102e-02
2.29040e+00	1.41955e-05	1.05106e-02
2.30035e+00	1.43111e-05	1.05098e-02
2.31026e+00	1.44246e-05	1.05100e-02
2.32054e+00	1.45418e-05	1.05102e-02
2.33047e+00	1.46570e-05	1.05111e-02
2.34041e+00	1.47702e-05	1.05124e-02
2.35034e+00	1.48835e-05	1.05108e-02
2.36030e+00	1.49967e-05	1.05112e-02
2.37056e+00	1.51117e-05	1.05094e-02
2.38050e+00	1.52261e-05	1.05102e-02
2.39042e+00	1.53362e-05	1.05095e-02
2.40036e+00	1.54458e-05	1.05100e-02
2.41031e+00	1.55577e-05	1.05114e-02
2.42057e+00	1.56695e-05	1.05121e-02
2.43049e+00	1.57817e-05	1.05120e-02
2.44041e+00	1.58940e-05	1.05144e-02
2.45035e+00	1.60051e-05	1.05142e-02
2.46028e+00	1.61131e-05	1.05128e-02
2.47022e+00	1.62248e-05	1.05125e-02
2.48047e+00	1.63346e-05	1.05124e-02
2.49041e+00	1.64448e-05	1.05141e-02
2.50033e+00	1.65519e-05	1.05111e-02
2.51026e+00	1.66556e-05	1.05113e-02
2.52019e+00	1.67645e-05	1.05116e-02
2.53047e+00	1.68775e-05	1.05123e-02
2.54042e+00	1.69835e-05	1.05106e-02
2.55035e+00	1.70869e-05	1.05094e-02
2.56027e+00	1.71913e-05	1.05109e-02
2.57023e+00	1.73019e-05	1.05087e-02
2.58049e+00	1.74092e-05	1.05087e-02
2.59041e+00	1.75134e-05	1.05105e-02
2.60032e+00	1.76184e-05	1.05105e-02
2.61027e+00	1.77250e-05	1.05084e-02
2.62026e+00	1.78316e-05	1.05080e-02
2.63050e+00	1.79383e-05	1.05104e-02
2.64041e+00	1.80444e-05	1.05095e-02
2.65035e+00	1.81488e-05	1.05101e-02
2.66030e+00	1.82488e-05	1.05098e-02
2.67024e+00	1.83559e-05	1.05099e-02
2.68049e+00	1.84572e-05	1.05085e-02
2.69042e+00	1.85580e-05	1.05094e-02
2.70038e+00	1.86597e-05	1.05075e-02
2.71030e+00	1.87652e-05	1.05078e-02
2.72026e+00	1.88625e-05	1.05075e-02
2.73049e+00	1.89704e-05	1.05075e-02
2.74042e+00	1.90694e-05	1.05080e-02
2.75036e+00	1.91707e-05	1.05089e-02
2.76028e+00	1.92713e-05	1.05059e-02
2.77022e+00	1.93671e-05	1.05056e-02
2.78051e+00	1.94699e-05	1.05086e-02
2.79046e+00	1.95746e-05	1.05072e-02
2.80038e+00	1.96759e-05	1.05088e-02
2.81033e+00	1.97745e-05	1.05072e-02
2.82026e+00	1.98692e-05	1.05046e-02
2.83055e+00	1.99722e-05	1.05061e-02
2.84049e+00	2.00730e-05	1.05038e-02
2.85040e+00	2.01679e-05	1.05031e-02
2.86036e+00	2.02663e-05	1.05036e-02
2.87034e+00	2.03662e-05	1.05047e-02
2.88059e+00	2.04669e-05	1.05056e-02
2.89052e+00	2.05649e-05	1.05036e-02
2.90047e+00	2.06629e-05	1.05050e-02
2.91040e+00	2.07606e-05	1.05069e-02
2.92034e+00	2.08597e-05	1.05083e-02
2.93058e+00	2.09602e-05	1.05072e-02
2.94050e+00	2.10544e-05	1.05089e-02
2.95050e+00	2.11488e-05	1.05093e-02
2.96045e+00	2.12437e-05	1.05080e-02
2.97034e+00	2.13419e-05	1.05071e-02
2.98062e+00	2.14391e-05	1.05084e-02
2.99055e+00	2.15327e-05	1.05088e-02
3.00051e+00	2.16260e-05	1.05068e-02
3.01044e+00	2.17177e-05	1.05072e-02
3.02037e+00	2.18137e-05	1.05063e-02
3.03064e+00	2.19165e-05	1.05066e-02
3.04059e+00	2.20055e-05	1.05072e-02
3.05051e+00	2.21016e-05	1.05062e-02
3.06044e+00	2.21969e-05	1.05081e-02
3.07036e+00	2.22911e-05	1.05079e-02
3.08065e+00	2.23876e-05	1.05088e-02
3.09058e+00	2.24787e-05	1.05090e-02
3.10050e+00	2.25715e-05	1.05088e-02
3.11044e+00	2.26624e-05	1.05087e-02
3.12039e+00	2.27578e-05	1.05089e-02
3.13063e+00	2.28519e-05	1.05090e-02
3.14057e+00	2.29437e-05	1.05095e-02
3.15050e+00	2.30392e-05	1.05107e-02
3.16042e+00	2.31292e-05	1.05098e-02
3.17039e+00	2.32178e-05	1.05107e-02
3.18063e+00	2.33131e-05	1.05091e-02
3.19055e+00	2.33976e-05	1.05082e-02
3.20050e+00	2.34868e-05	1.05091e-02
3.21046e+00	2.35810e-05	1.05097e-02
3.22037e+00	2.36758e-05	1.05102e-02
3.23064e+00	2.37703e-05	1.05100e-02
3.24058e+00	2.38553e-05	1.05110e-02
3.25054e+00	2.39471e-05	1.05099e-02
3.26046e+00	2.40348e-05	1.05105e-02
3.27038e+00	2.41205e-05	1.05084e-02
3.28066e+00	2.42089e-05	1.05081e-02
3.29059e+00	2.42929e-05	1.05074e-02
3.30053e+00	2.43837e-05	1.05062e-02
3.31043e+00	2.44696e-05	1.05080e-02
3.32037e+00	2.45586e-05	1.05065e-02
3.33065e+00	2.46476e-05	1.05059e-02
3.34058e+00	2.47376e-05	1.05069e-02
3.35051e+00	2.48280e-05	1.05075e-02
3.36046e+00	2.49113e-05	1.05072e-02
3.37039e+00	2.49995e-05	1.05078e-02
3.38065e+00	2.50878e-05	1.05068e-02
3.39058e+00	2.51755e-05	1.05067e-02
3.40052e+00	2.52549e-05	1.05064e-02
3.41044e+00	2.53417e-05	1.05061e-02
3.42040e+00	2.54250e-05	1.05054e-02
3.43067e+00	2.55164e-05	1.05055e-02
3.44059e+00	2.56000e-05	1.05056e-02
3.45052e+00	2.56804e-05	1.05020e-02
3.46047e+00	2.57684e-05	1.05059e-02
3.47039e+00	2.58459e-05	1.05036e-02
3.48065e+00	2.59369e-05	1.05037e-02
3.49058e+00	2.60192e-05	1.05026e-02
3.50052e+00	2.61083e-05	1.05041e-02
3.51044e+00	2.61918e-05	1.05027e-02
3.52036e+00	2.62677e-05	1.05022e-02
3.53064e+00	2.63554e-05	1.05020e-02
3.54057e+00	2.64373e-05	1.05029e-02
3.55051e+00	2.65260e-05	1.05026e-02
3.56045e+00	2.66041e-05	1.05017e-02
3.57037e+00	2.66810e-05	1.05001e-02
3.58062e+00	2.67691e-05	1.05007e-02
3.59059e+00	2.68494e-05	1.05011e-02
3.60053e+00	2.69324e-05	1.05017e-02
3.61048e+00	2.70134e-05	1.05008e-02
3.62038e+00	2.70960e-05	1.05026e-02
3.63065e+00	2.71860e-05	1.05021e-02
3.64058e+00	2.72656e-05	1.05023e-02
3.65051e+00	2.73462e-05	1.05025e-02
3.66044e+00	2.74249e-05	1.05007e-02
3.67039e+00	2.75085e-05	1.05005e-02
3.68065e+00	2.75916e-05	1.05011e-02
3.69058e+00	2.76798e-05	1.05030e-02
3.70052e+00	2.77526e-05	1.05011e-02
3.71046e+00	2.78317e-05	1.05023e-02
3.72042e+00	2.79172e-05	1.05023e-02
3.73037e+00	2.79983e-05	1.05020e-02
3.74059e+00	2.80766e-05	1.05036e-02
3.75054e+00	2.81613e-05	1.05011e-02
3.76047e+00	2.82392e-05	1.05012e-02
3.77041e+00	2.83129e-05	1.05011e-02
3.78035e+00	2.83921e-05	1.05001e-02
3.79061e+00	2.84723e-05	1.05012e-02
3.80056e+00	2.85509e-05	1.05011e-02
3.81050e+00	2.86277e-05	1.04993e-02
3.82043e+00	2.87049e-05	1.04992e-02
3.83036e+00	2.87807e-05	1.04992e-02
3.84063e+00	2.88571e-05	1.05000e-02
3.85059e+00	2.89459e-05	1.04996e-02
3.86051e+00	2.90243e-05	1.05001e-02
3.87044e+00	2.90997e-05	1.04980e-02
3.88036e+00	2.91769e-05	1.04978e-02
3.89066e+00	2.92549e-05	1.04995e-02
3.90057e+00	2.93375e-05	1.04990e-02
3.91047e+00	2.94105e-05	1.04978e-02
3.92041e+00	2.94794e-05	1.04987e-02
3.93037e+00	2.95587e-05	1.04982e-02
3.94065e+00	2.96364e-05	1.04979e-02
3.95056e+00	2.97223e-05	1.04975e-02
3.96050e+00	2.97954e-05	1.04977e-02
3.97047e+00	2.98714e-05	1.04990e-02
3.98037e+00	2.99483e-05	1.05000e-02
3.99061e+00	3.00268e-05	1.04988e-02
4.00056e+00	3.01070e-05	1.05004e-02
4.01052e+00	3.01815e-05	1.05002e-02
4.02047e+00	3.02605e-05	1.05004e-02
4.03037e+00	3.03335e-05	1.04990e-02
4.04063e+00	3.04149e-05	1.05010e-02
4.05059e+00	3.04899e-05	1.05011e-02
4.06053e+00	3.05665e-05	1.05016e-02
4.07044e+00	3.06367e-05	1.05002e-02
4.08038e+00	3.07107e-05	1.05012e-02
4.09062e+00	3.07913e-05	1.04997e-02
4.10064e+00	3.08661e-05	1.05013e-02
4.11056e+00	3.09371e-05	1.05001e-02
4.12050e+00	3.10093e-05	1.05011e-02
4.13042e+00	3.10798e-05	1.05031e-02
4.14070e+00	3.11673e-05	1.05033e-02
4.15062e+00	3.12420e-05	1.05031e-02
4.16056e+00	3.13168e-05	1.05049e-02
4.17047e+00	3.13845e-05	1.05033e-02
4.18046e+00	3.14610e-05	1.05056e-02
4.19070e+00	3.15420e-05	1.05075e-02
4.20061e+00	3.16187e-05	1.05058e-02
4.21055e+00	3.16917e-05	1.05067e-02
4.22051e+00	3.17622e-05	1.05066e-02
4.23042e+00	3.18347e-05	1.05067e-02
4.24066e+00	3.19065e-05	1.05078e-02
4.25061e+00	3.19767e-05	1.05060e-02
4.26057e+00	3.20603e-05	1.05079e-02
4.27051e+00	3.21264e-05	1.05079e-02
4.28045e+00	3.21998e-05	1.05072e-02
4.29066e+00	3.22667e-05	1.05088e-02
4.30064e+00	3.23482e-05	1.05096e-02
4.31058e+00	3.24227e-05	1.05087e-02
4.32050e+00	3.24885e-05	1.05106e-02
4.33042e+00	3.25648e-05	1.05081e-02
4.34070e+00	3.26322e-05	1.05080e-02
4.35066e+00	3.27006e-05	1.05082e-02
4.36056e+00	3.27749e-05	1.05094e-02
4.37046e+00	3.28483e-05	1.05067e-02
4.38043e+00	3.29181e-05	1.05087e-02
4.39069e+00	3.29960e-05	1.05088e-02
4.40063e+00	3.30647e-05	1.05084e-02
4.41054e+00	3.31339e-05	1.05077e-02
4.42046e+00	3.31902e-05	1.05057e-02
4.43039e+00	3.32637e-05	1.05073e-02
4.44068e+00	3.33353e-05	1.05073e-02
4.45059e+00	3.34020e-05	1.05071e-02
4.46051e+00	3.34688e-05	1.05054e-02
4.47046e+00	3.35378e-05	1.05079e-02
4.48040e+00	3.36181e-05	1.05079e-02
4.49064e+00	3.36911e-05	1.05087e-02
4.50059e+00	3.37592e-05	1.05075e-02
4.51053e+00	3.38271e-05	1.05089e-02
4.52049e+00	3.38888e-05	1.05083e-02
4.53044e+00	3.39649e-05	1.05065e-02
4.54068e+00	3.40379e-05	1.05092e-02
4.55061e+00	3.41089e-05	1.05091e-02
4.56056e+00	3.41735e-05	1.05098e-02
4.57050e+00	3.42402e-05	1.05074e-02
4.58040e+00	3.43029e-05	1.05084e-02
4.59069e+00	3.43810e-05	1.05079e-02
4.60064e+00	3.44391e-05	1.05084e-02
4.61057e+00	3.45080e-05	1.05076e-02
4.62047e+00	3.45855e-05	1.05075e-02
4.63044e+00	3.46380e-05	1.05078e-02
4.64067e+00	3.47115e-05	1.05060e-02
4.65060e+00	3.47756e-05	1.05076e-02
4.66057e+00	3.48389e-05	1.05055e-02
4.67050e+00	3.49055e-05	1.05060e-02
4.68043e+00	3.49760e-05	1.05068e-02
4.69069e+00	3.50469e-05	1.05080e-02
4.70062e+00	3.51131e-05	1.05093e-02
4.71057e+00	3.51776e-05	1.05084e-02
4.72049e+00	3.52518e-05	1.05103e-02
4.73043e+00	3.53171e-05	1.05103e-02
4.74069e+00	3.53838e-05	1.05091e-02
4.75059e+00	3.54541e-05	1.05086e-02
4.76057e+00	3.55182e-05	1.05094e-02
4.77052e+00	3.55788e-05	1.05093e-02
4.78046e+00	3.56513e-05	1.05086e-02
4.79071e+00	3.57168e-05	1.05088e-02
4.80065e+00	3.57835e-05	1.05099e-02
4.81057e+00	3.58481e-05	1.05096e-02
4.82052e+00	3.59141e-05	1.05105e-02
4.83045e+00	3.59754e-05	1.05108e-02
4.84071e+00	3.60491e-05	1.05100e-02
4.85066e+00	3.61040e-05	1.05095e-02
4.86062e+00	3.61745e-05	1.05101e-02
4.87055e+00	3.62369e-05	1.05093e-02
4.88048e+00	3.62935e-05	1.05082e-02
4.89075e+00	3.63657e-05	1.05086e-02
4.90067e+00	3.64221e-05	1.05069e-02
4.91060e+00	3.64855e-05	1.05064e-02
4.92055e+00	3.65533e-05	1.05058e-02
4.93045e+00	3.66164e-05	1.05058e-02
4.94043e+00	3.66811e-05	1.05063e-02
4.95068e+00	3.67450e-05	1.05055e-02
4.96058e+00	3.68139e-05	1.05083e-02
4.97052e+00	3.68785e-05	1.05073e-02
4.98045e+00	3.69435e-05	1.05064e-02
4.99041e+00	3.70040e-05	1.05074e-02
5.00065e+00	3.70596e-05	1.05072e-02
-2.95401e-05	-1.87063e-12	1.00509e-01
1.00248e-02	-1.65963e-12	1.00515e-01
2.00263e-02	-1.29187e-12	1.00512e-01
3.00293e-02	-1.00768e-12	1.00513e-01
4.00285e-02	-6.42300e-13	1.00513e-01
5.00324e-02	-4.10438e-13	1.00514e-01
6.00295e-02	-1.79052e-13	1.00516e-01
7.00348e-02	8.39233e-14	1.00520e-01
8.00348e-02	2.92063e-13	1.00517e-01
9.00332e-02	4.72665e-13	1.00518e-01
1.00031e-01	6.85692e-13	1.00516e-01
1.10031e-01	8.64029e-13	1.00514e-01
1.20037e-01	1.05596e-12	1.00514e-01
1.30034e-01	1.23560e-12	1.00512e-01
1.40032e-01	1.39725e-12	1.00508e-01
1.50027e-01	1.57142e-12	1.00508e-01
1.60025e-01	1.75107e-12	1.00505e-01
1.70026e-01	1.93989e-12	1.00501e-01
1.80022e-01	2.14386e-12	1.00500e-01
1.90022e-01	2.38669e-12	1.00500e-01
2.00022e-01	2.62201e-12	1.00498e-01
2.10033e-01	2.94685e-12	1.00499e-01
2.20020e-01	3.23308e-12	1.00496e-01
2.30008e-01	3.57461e-12	1.00501e-01
2.40034e-01	3.98648e-12	1.00497e-01
2.50021e-01	4.41551e-12	1.00501e-01
2.60045e-01	4.95028e-12	1.00501e-01
2.70037e-01	5.50210e-12	1.00503e-01
2.80021e-01	6.16503e-12	1.00505e-01
2.90045e-01	6.92999e-12	1.00508e-01
3.00033e-01	7.80666e-12	1.00513e-01
3.10021e-01	8.75723e-12	1.00517e-01
3.20050e-01	9.91178e-12	1.00510e-01
3.30033e-01	1.12021e-11	1.00507e-01
3.40017e-01	1.26775e-11	1.00504e-01
3.50040e-01	1.43749e-11	1.00501e-01
3.60027e-01	1.63212e-11	1.00505e-01
3.70018e-01	1.85283e-11	1.00498e-01
3.80045e-01	2.11071e-11	1.00498e-01
3.90031e-01	2.40706e-11	1.00500e-01
4.00020e-01	2.74738e-11	1.00497e-01
4.10050e-01	3.14288e-11	1.00499e-01
4.20036e-01	3.59504e-11	1.00499e-01
4.30028e-01	4.11786e-11	1.00496e-01
4.40042e-01	4.72571e-11	1.00491e-01
4.50027e-01	5.42250e-11	1.00497e-01
4.60016e-01	6.22426e-11	1.00495e-01
4.70049e-01	7.15901e-11	1.00490e-01
4.80042e-01	8.22867e-11	1.00492e-01
4.90033e-01	9.47492e-11	1.00491e-01
5.00057e-01	1.09196e-10	1.00484e-01
5.10041e-01	1.25796e-10	1.00483e-01
5.20064e-01	1.45131e-10	1.00482e-01
5.30051e-01	1.67429e-10	1.00483e-01
